Powder v3.beta                                                                  
BANK 1 4500 900 CONST 1000 2 0 0 ESD                                            
     45.      7.     45.      7.     45.      7.     44.      7.     44.      7.
     44.      7.     44.      7.     44.      7.     44.      7.     44.      7.
     44.      7.     44.      7.     44.      7.     44.      7.     44.      7.
     44.      7.     44.      7.     44.      7.     44.      7.     44.      7.
     44.      7.     44.      7.     44.      7.     44.      7.     44.      7.
     44.      7.     44.      7.     44.      7.     44.      7.     44.      7.
     44.      7.     44.      7.     44.      7.     44.      7.     44.      7.
     44.      7.     44.      7.     44.      7.     44.      7.     44.      7.
     44.      7.     44.      7.     44.      7.     44.      7.     44.      7.
     44.      7.     44.      7.     44.      7.     44.      7.     43.      7.
     43.      7.     43.      7.     43.      7.     43.      7.     43.      7.
     43.      7.     43.      7.     43.      7.     43.      7.     43.      7.
     43.      7.     43.      7.     43.      7.     43.      7.     43.      7.
     43.      7.     43.      7.     43.      7.     43.      7.     43.      7.
     43.      7.     43.      7.     43.      7.     43.      7.     43.      7.
     43.      7.     43.      7.     43.      7.     43.      7.     43.      7.
     43.      7.     43.      7.     43.      7.     43.      7.     43.      7.
     43.      7.     43.      7.     43.      7.     43.      7.     43.      7.
     43.      7.     43.      7.     43.      7.     43.      7.     43.      7.
     43.      7.     42.      6.     42.      6.     42.      6.     42.      6.
     42.      6.     42.      6.     42.      6.     42.      6.     42.      6.
     42.      6.     42.      6.     42.      6.     42.      6.     42.      6.
     42.      6.     42.      6.     42.      6.     42.      6.     42.      6.
     42.      6.     42.      6.     42.      6.     42.      6.     42.      6.
     42.      6.     42.      6.     42.      6.     42.      6.     42.      6.
     42.      6.     42.      6.     42.      6.     42.      6.     42.      6.
     42.      6.     42.      6.     42.      6.     42.      6.     42.      6.
     42.      6.     42.      6.     42.      6.     42.      6.     42.      6.
     42.      6.     42.      6.     42.      6.     41.      6.     41.      6.
     41.      6.     41.      6.     41.      6.     41.      6.     41.      6.
     41.      6.     41.      6.     41.      6.     41.      6.     41.      6.
     41.      6.     41.      6.     41.      6.     41.      6.     41.      6.
     41.      6.     41.      6.     41.      6.     41.      6.     41.      6.
     41.      6.     41.      6.     41.      6.     41.      6.     41.      6.
     41.      6.     41.      6.     41.      6.     41.      6.     41.      6.
     41.      6.     41.      6.     41.      6.     41.      6.     41.      6.
     41.      6.     41.      6.     41.      6.     41.      6.     41.      6.
     41.      6.     41.      6.     41.      6.     41.      6.     41.      6.
     41.      6.     40.      6.     40.      6.     40.      6.     40.      6.
     40.      6.     40.      6.     40.      6.     40.      6.     40.      6.
     40.      6.     40.      6.     40.      6.     40.      6.     40.      6.
     40.      6.     40.      6.     40.      6.     40.      6.     40.      6.
     40.      6.     40.      6.     40.      6.     40.      6.     40.      6.
     40.      6.     40.      6.     40.      6.     40.      6.     40.      6.
     40.      6.     40.      6.     40.      6.     40.      6.     40.      6.
     40.      6.     40.      6.     40.      6.     40.      6.     40.      6.
     40.      6.     40.      6.     40.      6.     40.      6.     40.      6.
     40.      6.     40.      6.     40.      6.     40.      6.     40.      6.
     39.      6.     39.      6.     39.      6.     39.      6.     39.      6.
     39.      6.     39.      6.     39.      6.     39.      6.     39.      6.
     39.      6.     39.      6.     39.      6.     39.      6.     39.      6.
     39.      6.     39.      6.     39.      6.     39.      6.     39.      6.
     39.      6.     39.      6.     39.      6.     39.      6.     39.      6.
     39.      6.     39.      6.     39.      6.     39.      6.     39.      6.
     39.      6.     39.      6.     39.      6.     39.      6.     39.      6.
     39.      6.     39.      6.     39.      6.     39.      6.     39.      6.
     39.      6.     39.      6.     39.      6.     39.      6.     39.      6.
     39.      6.     39.      6.     39.      6.     39.      6.     39.      6.
     38.      6.     38.      6.     38.      6.     38.      6.     38.      6.
     38.      6.     38.      6.     38.      6.     38.      6.     38.      6.
     38.      6.     38.      6.     38.      6.     38.      6.     38.      6.
     38.      6.     38.      6.     38.      6.     38.      6.     38.      6.
     38.      6.     38.      6.     38.      6.     38.      6.     38.      6.
     38.      6.     38.      6.     38.      6.     38.      6.     38.      6.
     38.      6.     38.      6.     38.      6.     38.      6.     38.      6.
     38.      6.     38.      6.     38.      6.     38.      6.     38.      6.
     38.      6.     38.      6.     38.      6.     38.      6.     38.      6.
     38.      6.     38.      6.     38.      6.     38.      6.     38.      6.
     37.      6.     37.      6.     37.      6.     37.      6.     37.      6.
     37.      6.     37.      6.     37.      6.     37.      6.     37.      6.
     37.      6.     37.      6.     37.      6.     37.      6.     37.      6.
     37.      6.     37.      6.     37.      6.     37.      6.     37.      6.
     37.      6.     37.      6.     37.      6.     37.      6.     37.      6.
     37.      6.     37.      6.     37.      6.     37.      6.     37.      6.
     37.      6.     37.      6.     37.      6.     37.      6.     37.      6.
     37.      6.     37.      6.     37.      6.     37.      6.     37.      6.
     37.      6.     37.      6.     37.      6.     37.      6.     37.      6.
     37.      6.     37.      6.     37.      6.     37.      6.     37.      6.
     37.      6.     37.      6.     36.      6.     36.      6.     36.      6.
     36.      6.     36.      6.     36.      6.     36.      6.     36.      6.
     36.      6.     36.      6.     36.      6.     36.      6.     36.      6.
     36.      6.     36.      6.     36.      6.     36.      6.     36.      6.
     36.      6.     36.      6.     36.      6.     36.      6.     36.      6.
     36.      6.     36.      6.     36.      6.     36.      6.     36.      6.
     36.      6.     36.      6.     36.      6.     36.      6.     36.      6.
     36.      6.     36.      6.     36.      6.     36.      6.     36.      6.
     36.      6.     36.      6.     36.      6.     36.      6.     36.      6.
     36.      6.     36.      6.     36.      6.     36.      6.     36.      6.
     36.      6.     36.      6.     36.      6.     36.      6.     35.      6.
     35.      6.     35.      6.     35.      6.     35.      6.     35.      6.
     35.      6.     35.      6.     35.      6.     64.      8.     64.      8.
     78.      9.     78.      9.     78.      9.     79.      9.     79.      9.
     79.      9.     79.      9.     79.      9.     79.      9.     79.      9.
     80.      9.     80.      9.     80.      9.     80.      9.     80.      9.
     80.      9.     81.      9.     81.      9.     81.      9.     81.      9.
     81.      9.     82.      9.     82.      9.     82.      9.     82.      9.
     83.      9.     83.      9.     83.      9.     83.      9.     84.      9.
     84.      9.     84.      9.     85.      9.     85.      9.     85.      9.
     86.      9.     86.      9.     87.      9.     87.      9.     87.      9.
     88.      9.     88.      9.     89.      9.     89.      9.     90.      9.
     91.     10.     91.     10.     92.     10.     92.     10.     93.     10.
     94.     10.     95.     10.     95.     10.     96.     10.     97.     10.
     98.     10.     99.     10.    100.     10.    101.     10.    102.     10.
    103.     10.    105.     10.    106.     10.    107.     10.    109.     10.
    110.     10.    112.     11.    114.     11.    116.     11.    118.     11.
    120.     11.    122.     11.    125.     11.    128.     11.    130.     11.
    134.     12.    137.     12.    141.     12.    145.     12.    149.     12.
    154.     12.    159.     13.    164.     13.    170.     13.    177.     13.
    185.     14.    193.     14.    202.     14.    212.     15.    224.     15.
    237.     15.    251.     16.    268.     16.    287.     17.    309.     18.
    334.     18.    364.     19.    398.     20.    440.     21.    490.     22.
    550.     23.    624.     25.    717.     27.    835.     29.    989.     31.
   1194.     35.   1475.     38.   1883.     43.   2552.     51.   3948.     63.
   7408.     86.  15317.    124.  29073.    171.  44543.    211.  50152.    224.
  44499.    211.  36421.    191.  25944.    161.  15306.    124.   8025.     90.
   4234.     65.   2569.     51.   1814.     43.   1392.     37.   1110.     33.
    907.     30.    755.     27.    639.     25.    547.     23.    474.     22.
    414.     20.    365.     19.    324.     18.    290.     17.    261.     16.
    236.     15.    214.     15.    195.     14.    179.     13.    164.     13.
    151.     12.    140.     12.    130.     11.    121.     11.    112.     11.
    105.     10.     98.     10.     92.     10.     86.      9.     81.      9.
     77.      9.     72.      8.     68.      8.     65.      8.     61.      8.
     58.      8.     55.      7.     53.      7.     50.      7.     48.      7.
     45.      7.     43.      7.     41.      6.     40.      6.     38.      6.
     36.      6.     35.      6.     33.      6.     33.      6.     32.      6.
     32.      6.     32.      6.     32.      6.     32.      6.     32.      6.
     32.      6.     32.      6.     32.      6.     32.      6.     32.      6.
     32.      6.     32.      6.     32.      6.     32.      6.     32.      6.
     32.      6.     32.      6.     32.      6.     32.      6.     32.      6.
     32.      6.     32.      6.     32.      6.     32.      6.     32.      6.
     32.      6.     32.      6.     32.      6.     32.      6.     32.      6.
     32.      6.     32.      6.     32.      6.     32.      6.     32.      6.
     32.      6.     32.      6.     31.      6.     31.      6.     31.      6.
     31.      6.     31.      6.     31.      6.     31.      6.     31.      6.
     31.      6.     31.      6.     31.      6.     31.      6.     31.      6.
     31.      6.     31.      6.     31.      6.     31.      6.     31.      6.
     31.      6.     31.      6.     31.      6.     31.      6.     31.      6.
     31.      6.     31.      6.     31.      6.     31.      6.     31.      6.
     31.      6.     31.      6.     31.      6.     31.      6.     31.      6.
     31.      6.     31.      6.     31.      6.     31.      6.     31.      6.
     31.      6.     31.      6.     31.      6.     31.      6.     31.      6.
     31.      6.     31.      6.     31.      6.     31.      6.     31.      6.
     31.      6.     31.      6.     31.      6.     31.      6.     31.      6.
     31.      6.     31.      6.     31.      6.     31.      6.     30.      5.
     30.      5.     30.      5.     30.      5.     30.      5.     30.      5.
     30.      5.     30.      5.     30.      5.     30.      5.     30.      5.
     30.      5.     30.      5.     30.      5.     30.      5.     30.      5.
     30.      5.     30.      5.     30.      5.     30.      5.     30.      5.
     30.      5.     30.      5.     30.      5.     30.      5.     30.      5.
     30.      5.     30.      5.     30.      5.     30.      5.     30.      5.
     30.      5.     30.      5.     30.      5.     30.      5.     30.      5.
     30.      5.     30.      5.     30.      5.     30.      5.     30.      5.
     30.      5.     30.      5.     30.      5.     30.      5.     30.      5.
     30.      5.     30.      5.     30.      5.     30.      5.     30.      5.
     30.      5.     30.      5.     30.      5.     30.      5.     30.      5.
     30.      5.     30.      5.     30.      5.     29.      5.     29.      5.
     29.      5.     29.      5.     29.      5.     29.      5.     29.      5.
     29.      5.     29.      5.     29.      5.     29.      5.     29.      5.
     29.      5.     29.      5.     29.      5.     29.      5.     29.      5.
     29.      5.     29.      5.     29.      5.     29.      5.     29.      5.
     29.      5.     29.      5.     29.      5.     29.      5.     29.      5.
     29.      5.     29.      5.     29.      5.     29.      5.     29.      5.
     29.      5.     29.      5.     29.      5.     29.      5.     29.      5.
     29.      5.     29.      5.     29.      5.     29.      5.     29.      5.
     29.      5.     29.      5.     29.      5.     29.      5.     29.      5.
     29.      5.     29.      5.     29.      5.     29.      5.     29.      5.
     29.      5.     29.      5.     29.      5.     29.      5.     29.      5.
     29.      5.     29.      5.     29.      5.     28.      5.     28.      5.
     28.      5.     28.      5.     28.      5.     28.      5.     28.      5.
     28.      5.     28.      5.     28.      5.     28.      5.     28.      5.
     28.      5.     28.      5.     28.      5.     28.      5.     28.      5.
     28.      5.     28.      5.     28.      5.     28.      5.     28.      5.
     28.      5.     28.      5.     28.      5.     28.      5.     28.      5.
     28.      5.     28.      5.     28.      5.     28.      5.     28.      5.
     28.      5.     28.      5.     28.      5.     28.      5.     28.      5.
     28.      5.     28.      5.     28.      5.     28.      5.     28.      5.
     28.      5.     28.      5.     28.      5.     28.      5.     28.      5.
     28.      5.     28.      5.     28.      5.     28.      5.     28.      5.
     28.      5.     28.      5.     28.      5.     28.      5.     28.      5.
     28.      5.     28.      5.     28.      5.     28.      5.     27.      5.
     42.      6.     42.      6.     42.      6.     49.      7.     50.      7.
     50.      7.     50.      7.     50.      7.     50.      7.     50.      7.
     50.      7.     50.      7.     50.      7.     50.      7.     50.      7.
     50.      7.     51.      7.     51.      7.     51.      7.     51.      7.
     51.      7.     51.      7.     51.      7.     51.      7.     52.      7.
     52.      7.     52.      7.     52.      7.     52.      7.     52.      7.
     52.      7.     53.      7.     53.      7.     53.      7.     53.      7.
     53.      7.     54.      7.     54.      7.     54.      7.     54.      7.
     54.      7.     55.      7.     55.      7.     55.      7.     55.      7.
     56.      7.     56.      7.     56.      7.     57.      8.     57.      8.
     57.      8.     58.      8.     58.      8.     59.      8.     59.      8.
     60.      8.     60.      8.     60.      8.     61.      8.     62.      8.
     62.      8.     63.      8.     63.      8.     64.      8.     65.      8.
     66.      8.     66.      8.     67.      8.     68.      8.     69.      8.
     70.      8.     71.      8.     72.      8.     73.      9.     75.      9.
     76.      9.     77.      9.     79.      9.     81.      9.     82.      9.
     84.      9.     86.      9.     89.      9.     91.     10.     94.     10.
     96.     10.     99.     10.    103.     10.    106.     10.    110.     10.
    115.     11.    120.     11.    125.     11.    131.     11.    137.     12.
    145.     12.    153.     12.    162.     13.    173.     13.    185.     14.
    199.     14.    215.     15.    233.     15.    255.     16.    280.     17.
    311.     18.    348.     19.    393.     20.    449.     21.    519.     23.
    610.     25.    729.     27.    890.     30.   1118.     33.   1477.     38.
   2173.     47.   3827.     62.   7675.     88.  14836.    122.  24101.    155.
  29645.    172.  26751.    164.  21554.    147.  19054.    138.  17019.    130.
  12420.    111.   7402.     86.   3949.     63.   2171.     47.   1385.     37.
   1014.     32.    797.     28.    648.     25.    539.     23.    455.     21.
    390.     20.    339.     18.    297.     17.    263.     16.    234.     15.
    210.     14.    190.     14.    173.     13.    158.     13.    145.     12.
    133.     12.    123.     11.    114.     11.    106.     10.     99.     10.
     93.     10.     87.      9.     82.      9.     78.      9.     73.      9.
     70.      8.     66.      8.     63.      8.     60.      8.     57.      8.
     55.      7.     52.      7.     50.      7.     48.      7.     46.      7.
     44.      7.     43.      7.     41.      6.     40.      6.     38.      6.
     37.      6.     36.      6.     35.      6.     34.      6.     33.      6.
     32.      6.     31.      6.     30.      5.     29.      5.     29.      5.
     28.      5.     27.      5.     27.      5.     26.      5.     25.      5.
     25.      5.     25.      5.     25.      5.     25.      5.     25.      5.
     25.      5.     25.      5.     25.      5.     24.      5.     24.      5.
     24.      5.     24.      5.     24.      5.     24.      5.     24.      5.
     24.      5.     24.      5.     24.      5.     24.      5.     24.      5.
     24.      5.     24.      5.     24.      5.     24.      5.     24.      5.
     24.      5.     24.      5.     24.      5.     24.      5.     24.      5.
     24.      5.     24.      5.     24.      5.     24.      5.     24.      5.
     24.      5.     24.      5.     24.      5.     24.      5.     24.      5.
     24.      5.     24.      5.     24.      5.     24.      5.     24.      5.
     24.      5.     24.      5.     24.      5.     24.      5.     24.      5.
     24.      5.     24.      5.     24.      5.     24.      5.     24.      5.
     24.      5.     24.      5.     24.      5.     24.      5.     24.      5.
     24.      5.     24.      5.     24.      5.     24.      5.     24.      5.
     24.      5.     24.      5.     24.      5.     24.      5.     24.      5.
     24.      5.     24.      5.     24.      5.     24.      5.     24.      5.
     24.      5.     23.      5.     23.      5.     23.      5.     23.      5.
     23.      5.     23.      5.     23.      5.     23.      5.     23.      5.
     23.      5.     23.      5.     23.      5.     23.      5.     23.      5.
     23.      5.     23.      5.     23.      5.     23.      5.     23.      5.
     23.      5.     23.      5.     23.      5.     23.      5.     23.      5.
     23.      5.     23.      5.     23.      5.     23.      5.     23.      5.
     23.      5.     23.      5.     23.      5.     23.      5.     23.      5.
     23.      5.     23.      5.     23.      5.     23.      5.     23.      5.
     23.      5.     23.      5.     23.      5.     23.      5.     23.      5.
     23.      5.     23.      5.     23.      5.     23.      5.     23.      5.
     23.      5.     23.      5.     23.      5.     23.      5.     23.      5.
     23.      5.     23.      5.     23.      5.     23.      5.     23.      5.
     23.      5.     23.      5.     23.      5.     23.      5.     23.      5.
     23.      5.     23.      5.     23.      5.     23.      5.     23.      5.
     23.      5.     22.      5.     22.      5.     22.      5.     22.      5.
     22.      5.     22.      5.     22.      5.     22.      5.     22.      5.
     22.      5.     22.      5.     22.      5.     22.      5.     22.      5.
     22.      5.     22.      5.     23.      5.     23.      5.     23.      5.
     23.      5.     23.      5.     24.      5.     24.      5.     24.      5.
     24.      5.     24.      5.     24.      5.     24.      5.     24.      5.
     24.      5.     24.      5.     24.      5.     24.      5.     24.      5.
     24.      5.     24.      5.     24.      5.     24.      5.     24.      5.
     24.      5.     24.      5.     24.      5.     24.      5.     24.      5.
     24.      5.     24.      5.     24.      5.     24.      5.     24.      5.
     24.      5.     24.      5.     24.      5.     25.      5.     25.      5.
     25.      5.     25.      5.     25.      5.     25.      5.     25.      5.
     25.      5.     25.      5.     25.      5.     25.      5.     25.      5.
     25.      5.     25.      5.     25.      5.     26.      5.     26.      5.
     26.      5.     26.      5.     26.      5.     26.      5.     26.      5.
     26.      5.     26.      5.     27.      5.     27.      5.     27.      5.
     27.      5.     27.      5.     27.      5.     27.      5.     28.      5.
     28.      5.     28.      5.     28.      5.     29.      5.     29.      5.
     29.      5.     29.      5.     30.      5.     30.      5.     30.      5.
     31.      6.     31.      6.     31.      6.     32.      6.     32.      6.
     33.      6.     33.      6.     34.      6.     35.      6.     35.      6.
     36.      6.     37.      6.     38.      6.     38.      6.     39.      6.
     41.      6.     42.      6.     43.      7.     44.      7.     46.      7.
     48.      7.     50.      7.     52.      7.     54.      7.     57.      8.
     60.      8.     63.      8.     67.      8.     72.      8.     77.      9.
     83.      9.     90.      9.     98.     10.    108.     10.    120.     11.
    135.     12.    153.     12.    176.     13.    205.     14.    244.     16.
    296.     17.    372.     19.    496.     22.    748.     27.   1341.     37.
   2632.     51.   4852.     70.   7486.     87.   8776.     94.   7571.     87.
   5698.     75.   4828.     69.   4927.     70.   4724.     69.   3545.     60.
   2169.     47.   1191.     35.    669.     26.    432.     21.    320.     18.
    256.     16.    213.     15.    181.     13.    156.     12.    137.     12.
    121.     11.    109.     10.     99.     10.     90.      9.     83.      9.
     77.      9.     71.      8.     67.      8.     63.      8.     59.      8.
     56.      7.     54.      7.     51.      7.     49.      7.     47.      7.
     45.      7.     44.      7.     42.      6.     41.      6.     40.      6.
     39.      6.     38.      6.     37.      6.     36.      6.     35.      6.
     34.      6.     33.      6.     33.      6.     32.      6.     32.      6.
     31.      6.     31.      6.     30.      5.     30.      5.     29.      5.
     29.      5.     29.      5.     28.      5.     28.      5.     28.      5.
     27.      5.     27.      5.     27.      5.     27.      5.     26.      5.
     26.      5.     26.      5.     26.      5.     25.      5.     25.      5.
     25.      5.     25.      5.     25.      5.     25.      5.     24.      5.
     24.      5.     24.      5.     24.      5.     24.      5.     24.      5.
     24.      5.     24.      5.     23.      5.     23.      5.     23.      5.
     23.      5.     23.      5.     23.      5.     23.      5.     23.      5.
     23.      5.     23.      5.     22.      5.     22.      5.     22.      5.
     22.      5.     22.      5.     22.      5.     22.      5.     22.      5.
     22.      5.     22.      5.     22.      5.     22.      5.     22.      5.
     22.      5.     21.      5.     21.      5.     21.      5.     21.      5.
     21.      5.     21.      5.     21.      5.     21.      5.     21.      5.
     21.      5.     21.      5.     21.      5.     21.      5.     21.      5.
     21.      5.     21.      5.     21.      5.     21.      5.     21.      5.
     21.      5.     21.      5.     21.      5.     20.      4.     20.      4.
     19.      4.     19.      4.     19.      4.     19.      4.     19.      4.
     19.      4.     19.      4.     19.      4.     19.      4.     19.      4.
     19.      4.     19.      4.     19.      4.     19.      4.     19.      4.
     19.      4.     19.      4.     19.      4.     19.      4.     19.      4.
     19.      4.     19.      4.     19.      4.     19.      4.     19.      4.
     19.      4.     19.      4.     19.      4.     19.      4.     19.      4.
     19.      4.     19.      4.     19.      4.     19.      4.     19.      4.
     19.      4.     19.      4.     19.      4.     18.      4.     18.      4.
     18.      4.     18.      4.     18.      4.     18.      4.     18.      4.
     19.      4.     19.      4.     19.      4.     19.      4.     19.      4.
     19.      4.     19.      4.     19.      4.     19.      4.     19.      4.
     19.      4.     19.      4.     19.      4.     19.      4.     19.      4.
     19.      4.     19.      4.     19.      4.     19.      4.     19.      4.
     19.      4.     19.      4.     19.      4.     19.      4.     19.      4.
     19.      4.     19.      4.     19.      4.     19.      4.     19.      4.
     19.      4.     19.      4.     19.      4.     19.      4.     19.      4.
     19.      4.     19.      4.     19.      4.     19.      4.     19.      4.
     19.      4.     19.      4.     19.      4.     19.      4.     19.      4.
     19.      4.     19.      4.     19.      4.     20.      4.     20.      4.
     20.      4.     20.      4.     20.      4.     20.      4.     20.      4.
     20.      4.     20.      4.     20.      4.     20.      4.     20.      4.
     20.      4.     20.      4.     20.      4.     20.      4.     20.      4.
     20.      4.     20.      4.     20.      4.     20.      4.     21.      5.
     21.      5.     21.      5.     21.      5.     21.      5.     21.      5.
     21.      5.     21.      5.     21.      5.     21.      5.     22.      5.
     22.      5.     22.      5.     22.      5.     22.      5.     22.      5.
     23.      5.     23.      5.     23.      5.     23.      5.     24.      5.
     24.      5.     24.      5.     25.      5.     25.      5.     25.      5.
     26.      5.     26.      5.     27.      5.     27.      5.     28.      5.
     28.      5.     29.      5.     30.      5.     31.      6.     32.      6.
     33.      6.     34.      6.     35.      6.     37.      6.     38.      6.
     40.      6.     42.      6.     45.      7.     48.      7.     51.      7.
     55.      7.     60.      8.     66.      8.     73.      9.     81.      9.
     92.     10.    106.     10.    124.     11.    148.     12.    182.     13.
    236.     15.    343.     19.    584.     24.   1106.     33.   2029.     45.
   3231.     57.   4098.     64.   3854.     62.   2888.     54.   2120.     46.
   1933.     44.   2155.     46.   2240.     47.   1820.     43.   1192.     35.
    686.     26.    387.     20.    241.     16.    174.     13.    138.     12.
    115.     11.     99.     10.     86.      9.     76.      9.     68.      8.
     62.      8.     57.      8.     52.      7.     49.      7.     45.      7.
     43.      7.     40.      6.     38.      6.     37.      6.     35.      6.
     34.      6.     32.      6.     31.      6.     30.      5.     29.      5.
     29.      5.     28.      5.     27.      5.     27.      5.     26.      5.
     25.      5.     25.      5.     25.      5.     24.      5.     24.      5.
     23.      5.     23.      5.     23.      5.     22.      5.     22.      5.
     22.      5.     22.      5.     21.      5.     21.      5.     21.      5.
     21.      5.     21.      5.     20.      4.     20.      4.     20.      4.
     20.      4.     20.      4.     20.      4.     20.      4.     19.      4.
     19.      4.     19.      4.     19.      4.     19.      4.     19.      4.
     19.      4.     19.      4.     19.      4.     19.      4.     18.      4.
     18.      4.     18.      4.     18.      4.     18.      4.     18.      4.
     18.      4.     18.      4.     18.      4.     18.      4.     18.      4.
     18.      4.     18.      4.     18.      4.     18.      4.     18.      4.
     18.      4.     17.      4.     17.      4.     17.      4.     17.      4.
     17.      4.     17.      4.     17.      4.     17.      4.     17.      4.
     17.      4.     17.      4.     17.      4.     17.      4.     17.      4.
     17.      4.     17.      4.     17.      4.     17.      4.     17.      4.
     17.      4.     17.      4.     17.      4.     17.      4.     17.      4.
     17.      4.     17.      4.     17.      4.     17.      4.     17.      4.
     16.      4.     16.      4.     16.      4.     16.      4.     16.      4.
     16.      4.     16.      4.     16.      4.     16.      4.     16.      4.
     16.      4.     16.      4.     16.      4.     16.      4.     16.      4.
     16.      4.     17.      4.     17.      4.     17.      4.     17.      4.
     17.      4.     17.      4.     17.      4.     17.      4.     17.      4.
     17.      4.     17.      4.     17.      4.     17.      4.     17.      4.
     17.      4.     17.      4.     17.      4.     17.      4.     17.      4.
     17.      4.     17.      4.     17.      4.     17.      4.     17.      4.
     17.      4.     18.      4.     18.      4.     18.      4.     18.      4.
     18.      4.     18.      4.     18.      4.     18.      4.     18.      4.
     18.      4.     18.      4.     18.      4.     18.      4.     18.      4.
     18.      4.     18.      4.     18.      4.     18.      4.     18.      4.
     18.      4.     18.      4.     18.      4.     19.      4.     19.      4.
     19.      4.     19.      4.     19.      4.     19.      4.     19.      4.
     19.      4.     19.      4.     19.      4.     19.      4.     19.      4.
     20.      4.     20.      4.     20.      4.     20.      4.     20.      4.
     20.      4.     20.      4.     20.      4.     21.      5.     21.      5.
     21.      5.     21.      5.     21.      5.     21.      5.     22.      5.
     22.      5.     22.      5.     22.      5.     22.      5.     23.      5.
     23.      5.     23.      5.     23.      5.     24.      5.     24.      5.
     24.      5.     25.      5.     25.      5.     26.      5.     26.      5.
     26.      5.     27.      5.     27.      5.     28.      5.     29.      5.
     29.      5.     30.      5.     30.      5.     31.      6.     32.      6.
     33.      6.     34.      6.     35.      6.     36.      6.     37.      6.
     38.      6.     40.      6.     41.      6.     43.      7.     45.      7.
     47.      7.     49.      7.     52.      7.     54.      7.     57.      8.
     61.      8.     65.      8.     69.      8.     74.      9.     80.      9.
     87.      9.     94.     10.    103.     10.    114.     11.    127.     11.
    142.     12.    161.     13.    184.     14.    213.     15.    250.     16.
    300.     17.    367.     19.    469.     22.    650.     25.   1031.     32.
   1862.     43.   3454.     59.   5874.     77.   8464.     92.   9561.     98.
   8185.     90.   5848.     76.   4203.     65.   3832.     62.   4440.     67.
   5089.     71.   4720.     69.   3457.     59.   2146.     46.   1222.     35.
    711.     27.    464.     22.    343.     19.    275.     17.    229.     15.
    195.     14.    169.     13.    148.     12.    131.     11.    117.     11.
    106.     10.     96.     10.     88.      9.     81.      9.     75.      9.
     70.      8.     65.      8.     61.      8.     58.      8.     54.      7.
     52.      7.     49.      7.     47.      7.     45.      7.     43.      7.
     41.      6.     39.      6.     38.      6.     37.      6.     35.      6.
     34.      6.     33.      6.     32.      6.     31.      6.     31.      6.
     30.      5.     29.      5.     28.      5.     28.      5.     27.      5.
     27.      5.     26.      5.     26.      5.     25.      5.     25.      5.
     24.      5.     24.      5.     23.      5.     23.      5.     23.      5.
     22.      5.     22.      5.     22.      5.     22.      5.     21.      5.
     21.      5.     21.      5.     21.      5.     20.      4.     20.      4.
     20.      4.     20.      4.     20.      4.     19.      4.     19.      4.
     19.      4.     19.      4.     19.      4.     19.      4.     18.      4.
     18.      4.     18.      4.     18.      4.     18.      4.     18.      4.
     18.      4.     18.      4.     17.      4.     17.      4.     17.      4.
     17.      4.     17.      4.     17.      4.     17.      4.     17.      4.
     17.      4.     17.      4.     17.      4.     16.      4.     16.      4.
     16.      4.     16.      4.     16.      4.     16.      4.     16.      4.
     16.      4.     17.      4.     17.      4.     16.      4.     16.      4.
     16.      4.     16.      4.     16.      4.     17.      4.     17.      4.
     16.      4.     16.      4.     16.      4.     16.      4.     16.      4.
     16.      4.     16.      4.     16.      4.     16.      4.     16.      4.
     16.      4.     16.      4.     16.      4.     16.      4.     16.      4.
     16.      4.     16.      4.     16.      4.     16.      4.     16.      4.
     16.      4.     16.      4.     16.      4.     15.      4.     15.      4.
     15.      4.     15.      4.     15.      4.     15.      4.     15.      4.
     15.      4.     15.      4.     15.      4.     15.      4.     15.      4.
     15.      4.     15.      4.     15.      4.     15.      4.     15.      4.
     15.      4.     15.      4.     15.      4.     15.      4.     15.      4.
     15.      4.     15.      4.     15.      4.     15.      4.     15.      4.
     15.      4.     15.      4.     15.      4.     15.      4.     16.      4.
     16.      4.     16.      4.     16.      4.     16.      4.     16.      4.
     16.      4.     16.      4.     16.      4.     16.      4.     16.      4.
     16.      4.     17.      4.     17.      4.     17.      4.     17.      4.
     17.      4.     17.      4.     17.      4.     17.      4.     18.      4.
     18.      4.     18.      4.     18.      4.     18.      4.     18.      4.
     19.      4.     19.      4.     19.      4.     19.      4.     20.      4.
     20.      4.     20.      4.     20.      4.     21.      5.     21.      5.
     21.      5.     22.      5.     22.      5.     23.      5.     23.      5.
     24.      5.     24.      5.     25.      5.     25.      5.     26.      5.
     27.      5.     28.      5.     29.      5.     30.      5.     31.      6.
     32.      6.     33.      6.     34.      6.     36.      6.     38.      6.
     40.      6.     42.      6.     44.      7.     47.      7.     50.      7.
     53.      7.     57.      8.     62.      8.     67.      8.     74.      9.
     81.      9.     90.      9.    101.     10.    114.     11.    131.     11.
    152.     12.    179.     13.    215.     15.    267.     16.    351.     19.
    515.     23.    864.     29.   1561.     40.   2738.     52.   4285.     65.
   5613.     75.   5754.     76.   4626.     68.   3222.     57.   2291.     48.
   2070.     45.   2428.     49.   2960.     54.   3077.     55.   2533.     50.
   1730.     42.   1048.     32.    608.     25.    373.     19.    259.     16.
    199.     14.    163.     13.    138.     12.    119.     11.    104.     10.
     93.     10.     83.      9.     75.      9.     68.      8.     62.      8.
     58.      8.     53.      7.     50.      7.     47.      7.     44.      7.
     41.      6.     39.      6.     37.      6.     36.      6.     34.      6.
     33.      6.     31.      6.     30.      5.     29.      5.     28.      5.
     27.      5.     26.      5.     26.      5.     25.      5.     24.      5.
     24.      5.     23.      5.     22.      5.     22.      5.     21.      5.
     21.      5.     21.      5.     20.      4.     20.      4.     20.      4.
     19.      4.     19.      4.     19.      4.     18.      4.     18.      4.
     18.      4.     18.      4.     17.      4.     17.      4.     17.      4.
     17.      4.     17.      4.     17.      4.     16.      4.     16.      4.
     16.      4.     16.      4.     16.      4.     16.      4.     15.      4.
     15.      4.     15.      4.     15.      4.     15.      4.     15.      4.
     15.      4.     15.      4.     15.      4.     15.      4.     14.      4.
     14.      4.     14.      4.     14.      4.     14.      4.     14.      4.
     14.      4.     14.      4.     14.      4.     14.      4.     14.      4.
     14.      4.     14.      4.     14.      4.     13.      4.     13.      4.
     13.      4.     13.      4.     13.      4.     13.      4.     13.      4.
     13.      4.     13.      4.     13.      4.     13.      4.     13.      4.
     13.      4.     13.      4.     13.      4.     13.      4.     13.      4.
     13.      4.     13.      4.     13.      4.     13.      4.     13.      4.
     13.      4.     13.      4.     12.      3.     12.      3.     12.      3.
     12.      3.     12.      3.     12.      3.     12.      3.     12.      3.
     12.      3.     12.      3.     12.      3.     12.      3.     12.      3.
     12.      3.     12.      3.     12.      3.     12.      3.     12.      3.
     12.      3.     12.      3.     12.      3.     12.      3.     12.      3.
     12.      3.     11.      3.     11.      3.     11.      3.     11.      3.
     11.      3.     11.      3.     11.      3.     11.      3.     11.      3.
     11.      3.     11.      3.     11.      3.     11.      3.     11.      3.
     11.      3.     11.      3.     11.      3.     11.      3.     11.      3.
     11.      3.     11.      3.     11.      3.     11.      3.     11.      3.
     11.      3.     11.      3.     11.      3.     11.      3.     11.      3.
     11.      3.     11.      3.     11.      3.     11.      3.     11.      3.
     11.      3.     11.      3.     11.      3.     11.      3.     11.      3.
     11.      3.     11.      3.     11.      3.     11.      3.     11.      3.
     11.      3.     11.      3.     11.      3.     11.      3.     11.      3.
     10.      3.     10.      3.     10.      3.     10.      3.     10.      3.
     10.      3.     10.      3.     10.      3.     10.      3.     10.      3.
     10.      3.     10.      3.     10.      3.     10.      3.     10.      3.
     10.      3.     10.      3.     10.      3.     10.      3.     10.      3.
     10.      3.     10.      3.     10.      3.     10.      3.     10.      3.
     10.      3.     10.      3.     10.      3.     10.      3.     10.      3.
     10.      3.     10.      3.     10.      3.     10.      3.     10.      3.
     10.      3.     10.      3.     10.      3.     10.      3.     10.      3.
     10.      3.     10.      3.     10.      3.     10.      3.     10.      3.
     10.      3.     10.      3.     10.      3.     10.      3.     10.      3.
     10.      3.     10.      3.     10.      3.     10.      3.     10.      3.
     10.      3.     10.      3.     10.      3.     10.      3.     10.      3.
     10.      3.     10.      3.     10.      3.     10.      3.     10.      3.
     10.      3.     10.      3.     10.      3.     10.      3.     10.      3.
     10.      3.     10.      3.     10.      3.     10.      3.     10.      3.
     10.      3.     10.      3.     10.      3.     10.      3.     10.      3.
     10.      3.     10.      3.     10.      3.     10.      3.     10.      3.
     10.      3.     10.      3.     10.      3.     10.      3.     10.      3.
     10.      3.     10.      3.     10.      3.     10.      3.     10.      3.
     10.      3.     10.      3.     10.      3.     10.      3.     10.      3.
     10.      3.     10.      3.     10.      3.     10.      3.     10.      3.
     10.      3.     10.      3.     10.      3.     10.      3.     10.      3.
     10.      3.     10.      3.     10.      3.     10.      3.     10.      3.
     10.      3.     10.      3.     10.      3.     10.      3.     10.      3.
     10.      3.     10.      3.     10.      3.     10.      3.     10.      3.
     10.      3.     10.      3.     10.      3.     10.      3.     10.      3.
     10.      3.     10.      3.     10.      3.     10.      3.     10.      3.
     10.      3.     10.      3.     10.      3.     10.      3.     10.      3.
     10.      3.     10.      3.     10.      3.     10.      3.     10.      3.
     10.      3.     10.      3.     10.      3.     10.      3.     10.      3.
     10.      3.     10.      3.     10.      3.     10.      3.     10.      3.
     10.      3.     10.      3.     10.      3.     10.      3.     10.      3.
     10.      3.     10.      3.     10.      3.     10.      3.     10.      3.
     10.      3.     10.      3.     10.      3.     10.      3.     10.      3.
     10.      3.     10.      3.     10.      3.     10.      3.     10.      3.
     10.      3.     10.      3.     10.      3.     10.      3.     10.      3.
     10.      3.     10.      3.     10.      3.     10.      3.     10.      3.
     10.      3.     10.      3.     10.      3.     10.      3.     10.      3.
     10.      3.     10.      3.     10.      3.     10.      3.     10.      3.
     10.      3.     11.      3.     11.      3.     11.      3.     11.      3.
     11.      3.     11.      3.     11.      3.     11.      3.     11.      3.
     11.      3.     11.      3.     11.      3.     11.      3.     11.      3.
     11.      3.     11.      3.     11.      3.     11.      3.     11.      3.
     11.      3.     11.      3.     12.      3.     12.      3.     12.      3.
     12.      3.     12.      3.     12.      3.     12.      3.     12.      3.
     12.      3.     13.      4.     13.      4.     13.      4.     13.      4.
     13.      4.     13.      4.     14.      4.     14.      4.     14.      4.
     14.      4.     15.      4.     15.      4.     16.      4.     16.      4.
     16.      4.     17.      4.     18.      4.     18.      4.     19.      4.
     20.      4.     21.      5.     22.      5.     23.      5.     25.      5.
     26.      5.     28.      5.     31.      6.     33.      6.     37.      6.
     41.      6.     46.      7.     53.      7.     62.      8.     74.      9.
     94.     10.    129.     11.    199.     14.    335.     18.    566.     24.
    895.     30.   1255.     35.   1485.     39.   1418.     38.   1118.     33.
    782.     28.    539.     23.    436.     21.    465.     22.    586.     24.
    729.     27.    787.     28.    698.     26.    521.     23.    345.     19.
    214.     15.    133.     12.     90.      9.     67.      8.     55.      7.
     47.      7.     41.      6.     36.      6.     33.      6.     30.      5.
     28.      5.     26.      5.     24.      5.     22.      5.     21.      5.
     20.      4.     19.      4.     18.      4.     18.      4.     17.      4.
     16.      4.     16.      4.     15.      4.     15.      4.     15.      4.
     14.      4.     14.      4.     14.      4.     13.      4.     13.      4.
     13.      4.     13.      4.     13.      4.     12.      3.     12.      3.
     12.      3.     12.      3.     12.      3.     12.      3.     12.      3.
     12.      3.     12.      3.     11.      3.     11.      3.     11.      3.
     11.      3.     11.      3.     11.      3.     11.      3.     11.      3.
     11.      3.     11.      3.     11.      3.     11.      3.     11.      3.
     11.      3.     11.      3.     11.      3.     11.      3.     11.      3.
     11.      3.     11.      3.     11.      3.     10.      3.     10.      3.
     10.      3.     10.      3.     10.      3.     10.      3.     10.      3.
     10.      3.     10.      3.     10.      3.     10.      3.     10.      3.
     10.      3.     10.      3.     10.      3.     10.      3.     10.      3.
     10.      3.     10.      3.     10.      3.     10.      3.     10.      3.
     10.      3.     10.      3.     10.      3.     10.      3.     10.      3.
     10.      3.     10.      3.     10.      3.     10.      3.     10.      3.
     10.      3.     10.      3.     10.      3.     10.      3.     10.      3.
     10.      3.     10.      3.     10.      3.     10.      3.     10.      3.
     10.      3.     10.      3.     10.      3.     10.      3.     10.      3.
     10.      3.     10.      3.     10.      3.     10.      3.     10.      3.
     10.      3.     10.      3.     10.      3.     10.      3.     10.      3.
     11.      3.     11.      3.     11.      3.     11.      3.     11.      3.
     11.      3.     11.      3.     11.      3.     11.      3.     11.      3.
     11.      3.     11.      3.     11.      3.     11.      3.     11.      3.
     11.      3.     11.      3.     11.      3.     11.      3.     11.      3.
     12.      3.     12.      3.     12.      3.     12.      3.     12.      3.
     12.      3.     12.      3.     12.      3.     12.      3.     12.      3.
     13.      4.     13.      4.     13.      4.     13.      4.     13.      4.
     13.      4.     14.      4.     14.      4.     14.      4.     14.      4.
     14.      4.     15.      4.     15.      4.     15.      4.     16.      4.
     16.      4.     16.      4.     17.      4.     17.      4.     18.      4.
     18.      4.     19.      4.     19.      4.     20.      4.     21.      5.
     22.      5.     23.      5.     24.      5.     25.      5.     26.      5.
     28.      5.     29.      5.     31.      6.     33.      6.     35.      6.
     38.      6.     41.      6.     45.      7.     49.      7.     54.      7.
     61.      8.     68.      8.     78.      9.     89.      9.    105.     10.
    125.     11.    157.     13.    210.     14.    312.     18.    506.     22.
    846.     29.   1362.     37.   2006.     45.   2593.     51.   2809.     53.
   2499.     50.   1900.     44.   1317.     36.    915.     30.    747.     27.
    796.     28.   1005.     32.   1277.     36.   1458.     38.   1399.     37.
   1127.     34.    796.     28.    515.     23.    321.     18.    205.     14.
    143.     12.    109.     10.     89.      9.     76.      9.     66.      8.
     59.      8.     52.      7.     47.      7.     43.      7.     40.      6.
     36.      6.     34.      6.     32.      6.     30.      5.     28.      5.
     26.      5.     25.      5.     24.      5.     23.      5.     22.      5.
     21.      5.     20.      4.     20.      4.     19.      4.     18.      4.
     18.      4.     17.      4.     17.      4.     17.      4.     16.      4.
     16.      4.     15.      4.     15.      4.     15.      4.     15.      4.
     14.      4.     14.      4.     14.      4.     14.      4.     13.      4.
     13.      4.     13.      4.     13.      4.     13.      4.     13.      4.
     12.      3.     12.      3.     12.      3.     12.      3.     12.      3.
     12.      3.     12.      3.     12.      3.     11.      3.     11.      3.
     11.      3.     11.      3.     11.      3.     11.      3.     11.      3.
     11.      3.     11.      3.     11.      3.     11.      3.     11.      3.
     11.      3.     11.      3.     11.      3.     11.      3.     10.      3.
     10.      3.     10.      3.     10.      3.     10.      3.     10.      3.
     10.      3.     10.      3.     10.      3.     10.      3.     10.      3.
     10.      3.     10.      3.     10.      3.     10.      3.     10.      3.
     10.      3.     10.      3.     10.      3.     10.      3.     10.      3.
     10.      3.     10.      3.     10.      3.     10.      3.     10.      3.
     10.      3.     10.      3.     10.      3.     10.      3.     10.      3.
     10.      3.     10.      3.     10.      3.     10.      3.     10.      3.
     10.      3.     10.      3.     10.      3.     10.      3.     10.      3.
     10.      3.     10.      3.     10.      3.     10.      3.     10.      3.
     10.      3.     10.      3.     10.      3.     10.      3.     10.      3.
     10.      3.     10.      3.     10.      3.     10.      3.     10.      3.
     11.      3.     11.      3.     11.      3.     11.      3.     11.      3.
     11.      3.     11.      3.     11.      3.     11.      3.     11.      3.
     11.      3.     11.      3.     11.      3.     11.      3.     12.      3.
     12.      3.     12.      3.     12.      3.     12.      3.     12.      3.
     12.      3.     13.      4.     13.      4.     13.      4.     13.      4.
     13.      4.     14.      4.     13.      4.     14.      4.     14.      4.
     14.      4.     15.      4.     15.      4.     15.      4.     16.      4.
     16.      4.     17.      4.     17.      4.     18.      4.     18.      4.
     19.      4.     20.      4.     21.      5.     22.      5.     23.      5.
     24.      5.     25.      5.     27.      5.     29.      5.     31.      6.
     33.      6.     35.      6.     39.      6.     42.      6.     46.      7.
     52.      7.     58.      8.     66.      8.     76.      9.     88.      9.
    106.     10.    134.     12.    182.     13.    271.     16.    434.     21.
    706.     27.   1102.     33.   1581.     40.   2013.     45.   2184.     47.
   1981.     45.   1547.     39.   1097.     33.    757.     28.    573.     24.
    544.     23.    645.     25.    832.     29.   1033.     32.   1138.     34.
   1064.     33.    852.     29.    608.     25.    401.     20.    256.     16.
    167.     13.    117.     11.     89.      9.     73.      9.     63.      8.
     55.      7.     49.      7.     44.      7.     40.      6.     36.      6.
     33.      6.     31.      6.     29.      5.     27.      5.     25.      5.
     24.      5.     23.      5.     22.      5.     21.      5.     20.      4.
     19.      4.     18.      4.     18.      4.     17.      4.     17.      4.
     16.      4.     16.      4.     15.      4.     15.      4.     15.      4.
     14.      4.     14.      4.     14.      4.     13.      4.     13.      4.
     13.      4.     13.      4.     12.      3.     12.      3.     12.      3.
     12.      3.     12.      3.     12.      3.     12.      3.     11.      3.
     11.      3.     11.      3.     11.      3.     11.      3.     11.      3.
     11.      3.     11.      3.     11.      3.     10.      3.     10.      3.
     10.      3.     10.      3.     10.      3.     10.      3.     10.      3.
     10.      3.     10.      3.     10.      3.     10.      3.     10.      3.
     10.      3.     10.      3.     10.      3.     10.      3.     10.      3.
     10.      3.     10.      3.     10.      3.      9.      3.      9.      3.
      9.      3.      9.      3.      9.      3.      9.      3.      9.      3.
      9.      3.      9.      3.      9.      3.      9.      3.      9.      3.
      9.      3.      9.      3.      9.      3.      9.      3.      9.      3.
      9.      3.      9.      3.      9.      3.      9.      3.      9.      3.
      9.      3.      9.      3.      9.      3.      9.      3.      9.      3.
      9.      3.      9.      3.      9.      3.      9.      3.      9.      3.
      9.      3.      9.      3.      9.      3.      9.      3.      9.      3.
      9.      3.      9.      3.      9.      3.      9.      3.      9.      3.
      9.      3.      9.      3.     10.      3.     10.      3.     10.      3.
     10.      3.     10.      3.     10.      3.     10.      3.     10.      3.
     10.      3.     10.      3.     10.      3.     10.      3.     10.      3.
     10.      3.     10.      3.     10.      3.     10.      3.     10.      3.
     11.      3.     11.      3.     11.      3.     11.      3.     11.      3.
     11.      3.     11.      3.     11.      3.     11.      3.     12.      3.
     12.      3.     12.      3.     12.      3.     12.      3.     13.      4.
     13.      4.     13.      4.     13.      4.     14.      4.     14.      4.
     14.      4.     15.      4.     15.      4.     16.      4.     16.      4.
     17.      4.     17.      4.     18.      4.     18.      4.     19.      4.
     20.      4.     21.      5.     22.      5.     24.      5.     25.      5.
     27.      5.     29.      5.     31.      6.     34.      6.     37.      6.
     42.      6.     46.      7.     52.      7.     60.      8.     70.      8.
     84.      9.    106.     10.    145.     12.    215.     15.    339.     18.
    537.     23.    815.     29.   1144.     34.   1442.     38.   1574.     40.
   1460.     38.   1177.     34.    860.     29.    599.     24.    433.     21.
    368.     19.    393.     20.    490.     22.    629.     25.    763.     28.
    820.     29.    758.     28.    610.     25.    443.     21.    300.     17.
    196.     14.    130.     11.     92.     10.     70.      8.     57.      8.
     49.      7.     43.      7.     39.      6.     35.      6.     32.      6.
     29.      5.     27.      5.     25.      5.     24.      5.     22.      5.
     21.      5.     20.      4.     19.      4.     18.      4.     17.      4.
     17.      4.     16.      4.     16.      4.     15.      4.     15.      4.
     14.      4.     14.      4.     13.      4.     13.      4.     13.      4.
     13.      4.     12.      3.     12.      3.     12.      3.     12.      3.
     11.      3.     11.      3.     11.      3.     11.      3.     11.      3.
     11.      3.     10.      3.     10.      3.     10.      3.     10.      3.
     10.      3.     10.      3.     10.      3.     10.      3.     10.      3.
     10.      3.     10.      3.      9.      3.      9.      3.      9.      3.
      9.      3.      9.      3.      9.      3.      9.      3.      9.      3.
      9.      3.      9.      3.      9.      3.      9.      3.      9.      3.
      9.      3.      9.      3.      9.      3.      9.      3.      9.      3.
      9.      3.      9.      3.      9.      3.      8.      3.      8.      3.
      8.      3.      8.      3.      8.      3.      8.      3.      8.      3.
      8.      3.      8.      3.      8.      3.      8.      3.      8.      3.
      8.      3.      8.      3.      8.      3.      8.      3.      8.      3.
      8.      3.      8.      3.      8.      3.      8.      3.      8.      3.
      8.      3.      8.      3.      8.      3.      8.      3.      8.      3.
      8.      3.      8.      3.      8.      3.      8.      3.      8.      3.
      8.      3.      8.      3.      8.      3.      8.      3.      8.      3.
      8.      3.      8.      3.      8.      3.      8.      3.      8.      3.
      8.      3.      8.      3.      8.      3.      8.      3.      8.      3.
      8.      3.      8.      3.      8.      3.      8.      3.      8.      3.
      8.      3.      8.      3.      8.      3.      8.      3.      8.      3.
      8.      3.      8.      3.      8.      3.      8.      3.      8.      3.
      8.      3.      8.      3.      8.      3.      8.      3.      8.      3.
      8.      3.      8.      3.      8.      3.      8.      3.      8.      3.
      8.      3.      8.      3.      9.      3.      9.      3.      9.      3.
      9.      3.      9.      3.      9.      3.      9.      3.      9.      3.
      9.      3.      9.      3.      9.      3.      9.      3.     10.      3.
     10.      3.     10.      3.     10.      3.     10.      3.     11.      3.
     11.      3.     11.      3.     12.      3.     12.      3.     13.      4.
     13.      4.     14.      4.     15.      4.     16.      4.     17.      4.
     19.      4.     21.      5.     25.      5.     32.      6.     44.      7.
     64.      8.     96.     10.    141.     12.    198.     14.    255.     16.
    293.     17.    292.     17.    254.     16.    199.     14.    145.     12.
    104.     10.     79.      9.     70.      8.     76.      9.     93.     10.
    118.     11.    143.     12.    157.     13.    152.     12.    130.     11.
    101.     10.     73.      9.     51.      7.     36.      6.     27.      5.
     21.      5.     18.      4.     16.      4.     15.      4.     14.      4.
     13.      4.     12.      3.     12.      3.     11.      3.     11.      3.
     11.      3.     10.      3.     10.      3.     10.      3.     10.      3.
     10.      3.      9.      3.      9.      3.      9.      3.      9.      3.
      9.      3.      9.      3.      9.      3.      9.      3.      9.      3.
      9.      3.      9.      3.      8.      3.      8.      3.      8.      3.
      8.      3.      8.      3.      8.      3.      8.      3.      8.      3.
      8.      3.      8.      3.      8.      3.      8.      3.      8.      3.
      8.      3.      8.      3.      8.      3.      8.      3.      8.      3.
      8.      3.      8.      3.      8.      3.      8.      3.      8.      3.
      8.      3.      8.      3.      8.      3.      8.      3.      8.      3.
      8.      3.      8.      3.      8.      3.      8.      3.      8.      3.
      8.      3.      8.      3.      8.      3.      8.      3.      8.      3.
      8.      3.      8.      3.      8.      3.      8.      3.      8.      3.
      8.      3.      8.      3.      8.      3.      8.      3.      8.      3.
      8.      3.      8.      3.      8.      3.      8.      3.      8.      3.
      8.      3.      8.      3.      8.      3.      8.      3.      8.      3.
      8.      3.      8.      3.      8.      3.      8.      3.      8.      3.
      8.      3.      8.      3.      8.      3.      8.      3.      8.      3.
      8.      3.      8.      3.      8.      3.      8.      3.      8.      3.
      8.      3.      8.      3.      8.      3.      8.      3.      8.      3.
      8.      3.      9.      3.      9.      3.      9.      3.      9.      3.
      9.      3.      9.      3.      9.      3.      9.      3.      9.      3.
      9.      3.      9.      3.      9.      3.      9.      3.      9.      3.
      9.      3.      9.      3.      9.      3.      9.      3.      9.      3.
      9.      3.     10.      3.     10.      3.     10.      3.     10.      3.
     10.      3.     10.      3.     10.      3.     10.      3.     10.      3.
     10.      3.     11.      3.     11.      3.     11.      3.     11.      3.
     11.      3.     11.      3.     12.      3.     12.      3.     12.      3.
     12.      3.     13.      4.     13.      4.     13.      4.     14.      4.
     14.      4.     15.      4.     15.      4.     16.      4.     16.      4.
     17.      4.     18.      4.     19.      4.     20.      4.     21.      5.
     22.      5.     24.      5.     25.      5.     27.      5.     30.      5.
     33.      6.     36.      6.     40.      6.     46.      7.     53.      7.
     63.      8.     79.      9.    107.     10.    155.     12.    233.     15.
    351.     19.    510.     23.    698.     26.    880.     30.    995.     32.
    988.     31.    863.     29.    682.     26.    503.     22.    360.     19.
    265.     16.    220.     15.    220.     15.    259.     16.    328.     18.
    413.     20.    490.     22.    525.     23.    498.     22.    421.     21.
    325.     18.    234.     15.    163.     13.    112.     11.     79.      9.
     59.      8.     47.      7.     40.      6.     35.      6.     31.      6.
     28.      5.     26.      5.     24.      5.     23.      5.     21.      5.
     20.      4.     19.      4.     18.      4.     17.      4.     17.      4.
     16.      4.     15.      4.     15.      4.     15.      4.     14.      4.
     14.      4.     13.      4.     13.      4.     13.      4.     13.      4.
     12.      3.     12.      3.     12.      3.     12.      3.     12.      3.
     11.      3.     11.      3.     11.      3.     11.      3.     11.      3.
     11.      3.     11.      3.     11.      3.     11.      3.     10.      3.
     10.      3.     10.      3.     10.      3.     10.      3.     10.      3.
     10.      3.     10.      3.     10.      3.     10.      3.     10.      3.
     10.      3.     10.      3.     10.      3.     10.      3.     10.      3.
     10.      3.     10.      3.     10.      3.     10.      3.     10.      3.
     10.      3.     10.      3.      9.      3.      9.      3.      9.      3.
      9.      3.      9.      3.      9.      3.      9.      3.      9.      3.
      9.      3.      9.      3.      9.      3.      9.      3.      9.      3.
      9.      3.      9.      3.      9.      3.      9.      3.      9.      3.
      9.      3.      9.      3.      9.      3.      9.      3.      9.      3.
     10.      3.     10.      3.     10.      3.     10.      3.     10.      3.
     10.      3.     10.      3.     10.      3.     10.      3.     10.      3.
     10.      3.     10.      3.     10.      3.     10.      3.     10.      3.
     10.      3.     10.      3.     10.      3.     10.      3.     10.      3.
     10.      3.     10.      3.     10.      3.     10.      3.     10.      3.
     10.      3.     10.      3.     11.      3.     11.      3.     11.      3.
     11.      3.     11.      3.     11.      3.     11.      3.     11.      3.
     11.      3.     11.      3.     11.      3.     12.      3.     12.      3.
     12.      3.     12.      3.     12.      3.     12.      3.     13.      4.
     13.      4.     13.      4.     13.      4.     13.      4.     14.      4.
     14.      4.     14.      4.     14.      4.     15.      4.     15.      4.
     15.      4.     16.      4.     16.      4.     17.      4.     17.      4.
     18.      4.     18.      4.     19.      4.     20.      4.     20.      4.
     21.      5.     22.      5.     23.      5.     25.      5.     26.      5.
     27.      5.     29.      5.     31.      6.     34.      6.     36.      6.
     39.      6.     43.      7.     47.      7.     52.      7.     59.      8.
     67.      8.     77.      9.     93.     10.    116.     11.    155.     12.
    220.     15.    325.     18.    482.     22.    696.     26.    958.     31.
   1230.     35.   1446.     38.   1522.     39.   1420.     38.   1193.     35.
    926.     30.    682.     26.    493.     22.    371.     19.    315.     18.
    317.     18.    371.     19.    466.     22.    586.     24.    704.     27.
    781.     28.    778.     28.    694.     26.    563.     24.    426.     21.
    306.     17.    214.     15.    149.     12.    107.     10.     82.      9.
     66.      8.     56.      7.     49.      7.     44.      7.     39.      6.
     36.      6.     33.      6.     31.      6.     29.      5.     27.      5.
     25.      5.     24.      5.     23.      5.     22.      5.     21.      5.
     20.      4.     19.      4.     19.      4.     18.      4.     17.      4.
     17.      4.     16.      4.     16.      4.     15.      4.     15.      4.
     15.      4.     14.      4.     14.      4.     14.      4.     14.      4.
     13.      4.     13.      4.     13.      4.     13.      4.     13.      4.
     12.      3.     12.      3.     12.      3.     12.      3.     12.      3.
     12.      3.     11.      3.     11.      3.     11.      3.     11.      3.
     11.      3.     11.      3.     11.      3.     11.      3.     11.      3.
     11.      3.     11.      3.     10.      3.     10.      3.     10.      3.
     10.      3.     10.      3.     10.      3.     10.      3.     10.      3.
     10.      3.     10.      3.     10.      3.     10.      3.     10.      3.
     10.      3.     10.      3.     10.      3.     10.      3.     10.      3.
     10.      3.     10.      3.     10.      3.     10.      3.      9.      3.
      9.      3.      9.      3.      9.      3.      9.      3.      9.      3.
      9.      3.      9.      3.      9.      3.      9.      3.      9.      3.
      9.      3.      9.      3.      9.      3.      9.      3.      9.      3.
      9.      3.      9.      3.      9.      3.      9.      3.      9.      3.
      9.      3.      9.      3.      9.      3.      9.      3.      9.      3.
      9.      3.      9.      3.      9.      3.      9.      3.      9.      3.
      9.      3.      9.      3.      9.      3.      9.      3.      9.      3.
      9.      3.      9.      3.      9.      3.      9.      3.      9.      3.
      9.      3.      9.      3.      9.      3.      9.      3.      9.      3.
      9.      3.      9.      3.      9.      3.      9.      3.      9.      3.
      9.      3.      9.      3.      9.      3.      9.      3.      9.      3.
      9.      3.      9.      3.      9.      3.      9.      3.      9.      3.
      9.      3.      9.      3.      9.      3.      9.      3.      9.      3.
      9.      3.      9.      3.      9.      3.      9.      3.      9.      3.
      9.      3.      9.      3.      9.      3.      9.      3.      9.      3.
      9.      3.      9.      3.      9.      3.      9.      3.      9.      3.
      9.      3.      9.      3.      9.      3.      9.      3.      9.      3.
      9.      3.      9.      3.      9.      3.      9.      3.      9.      3.
      9.      3.      9.      3.      9.      3.      9.      3.      9.      3.
      9.      3.      9.      3.      9.      3.      9.      3.      9.      3.
      9.      3.      9.      3.      9.      3.      9.      3.      9.      3.
      9.      3.      9.      3.      9.      3.      9.      3.      9.      3.
      9.      3.      9.      3.      9.      3.      9.      3.      9.      3.
      9.      3.      9.      3.      9.      3.      9.      3.      9.      3.
      9.      3.      9.      3.      9.      3.      9.      3.      9.      3.
      9.      3.      9.      3.      9.      3.      9.      3.      9.      3.
      9.      3.      9.      3.      9.      3.      9.      3.      9.      3.
      9.      3.      9.      3.      9.      3.      9.      3.      9.      3.
      9.      3.      9.      3.      9.      3.      9.      3.      9.      3.
      9.      3.      9.      3.      9.      3.      9.      3.      9.      3.
      9.      3.      9.      3.      9.      3.      9.      3.      9.      3.
      9.      3.      9.      3.      9.      3.      9.      3.      9.      3.
      9.      3.      9.      3.      9.      3.      9.      3.      9.      3.
      9.      3.      9.      3.      9.      3.      9.      3.      9.      3.
      9.      3.      9.      3.      9.      3.      9.      3.      9.      3.
      9.      3.      9.      3.      9.      3.      9.      3.      9.      3.
      9.      3.      9.      3.      9.      3.      9.      3.      9.      3.
      9.      3.      9.      3.      9.      3.      9.      3.      9.      3.
      9.      3.      9.      3.      9.      3.      9.      3.      9.      3.
      9.      3.      9.      3.      9.      3.      9.      3.      9.      3.
      9.      3.      9.      3.      9.      3.      9.      3.      9.      3.
      9.      3.      9.      3.      9.      3.      9.      3.      9.      3.
      9.      3.      9.      3.      9.      3.      9.      3.      9.      3.
      9.      3.      9.      3.      9.      3.      9.      3.      9.      3.
      9.      3.      9.      3.      9.      3.      9.      3.      9.      3.
      9.      3.      9.      3.      9.      3.      9.      3.      9.      3.
     10.      3.     10.      3.     10.      3.     10.      3.     10.      3.
     10.      3.     10.      3.     10.      3.     10.      3.     10.      3.
     10.      3.     10.      3.     10.      3.     10.      3.     10.      3.
     10.      3.     10.      3.     10.      3.     10.      3.     10.      3.
     10.      3.     10.      3.     10.      3.     10.      3.     10.      3.
     11.      3.     11.      3.     11.      3.     11.      3.     11.      3.
     11.      3.     11.      3.     11.      3.     11.      3.     11.      3.
     11.      3.     12.      3.     12.      3.     12.      3.     12.      3.
     12.      3.     12.      3.     13.      4.     13.      4.     13.      4.
     14.      4.     14.      4.     14.      4.     15.      4.     15.      4.
     16.      4.     17.      4.     18.      4.     19.      4.     21.      5.
     23.      5.     26.      5.     30.      5.     38.      6.     50.      7.
     67.      8.     92.     10.    124.     11.    161.     13.    200.     14.
    232.     15.    249.     16.    243.     16.    218.     15.    182.     13.
    144.     12.    110.     10.     84.      9.     67.      8.     57.      8.
     55.      7.     59.      8.     68.      8.     83.      9.    100.     10.
    117.     11.    130.     11.    134.     12.    126.     11.    110.     10.
     91.     10.     72.      8.     55.      7.     42.      6.     33.      6.
     27.      5.     23.      5.     20.      4.     18.      4.     17.      4.
     16.      4.     16.      4.     15.      4.     14.      4.     14.      4.
     14.      4.     13.      4.     13.      4.     13.      4.     13.      4.
     13.      4.     12.      3.     12.      3.     12.      3.     12.      3.
     12.      3.     12.      3.     12.      3.     12.      3.     12.      3.
     12.      3.     12.      3.     11.      3.     11.      3.     11.      3.
     11.      3.     11.      3.     11.      3.     11.      3.     11.      3.
     11.      3.     11.      3.     11.      3.     11.      3.     11.      3.
     11.      3.     11.      3.     11.      3.     11.      3.     11.      3.
     11.      3.     11.      3.     11.      3.     11.      3.     11.      3.
     11.      3.     11.      3.     11.      3.     11.      3.     11.      3.
     11.      3.     11.      3.     11.      3.     11.      3.     11.      3.
     11.      3.     11.      3.     11.      3.     11.      3.     11.      3.
     11.      3.     11.      3.     11.      3.     11.      3.     11.      3.
     11.      3.     11.      3.     11.      3.     11.      3.     11.      3.
     11.      3.     11.      3.     11.      3.     12.      3.     12.      3.
     12.      3.     12.      3.     12.      3.     12.      3.     12.      3.
     12.      3.     12.      3.     12.      3.     12.      3.     12.      3.
     12.      3.     12.      3.     12.      3.     12.      3.     12.      3.
     12.      3.     12.      3.     12.      3.     12.      3.     12.      3.
     12.      3.     12.      3.     13.      4.     13.      4.     13.      4.
     13.      4.     13.      4.     13.      4.     13.      4.     13.      4.
     13.      4.     13.      4.     13.      4.     13.      4.     13.      4.
     14.      4.     14.      4.     14.      4.     14.      4.     14.      4.
     14.      4.     14.      4.     14.      4.     15.      4.     15.      4.
     15.      4.     15.      4.     15.      4.     16.      4.     16.      4.
     16.      4.     16.      4.     16.      4.     17.      4.     17.      4.
     17.      4.     18.      4.     18.      4.     18.      4.     19.      4.
     19.      4.     20.      4.     20.      4.     21.      5.     22.      5.
     22.      5.     23.      5.     24.      5.     25.      5.     26.      5.
     27.      5.     28.      5.     30.      5.     31.      6.     33.      6.
     35.      6.     38.      6.     40.      6.     44.      7.     48.      7.
     52.      7.     58.      8.     65.      8.     75.      9.     88.      9.
    109.     10.    142.     12.    191.     14.    264.     16.    366.     19.
    500.     22.    664.     26.    846.     29.   1020.     32.   1152.     34.
   1201.     35.   1149.     34.   1017.     32.    845.     29.    669.     26.
    513.     23.    388.     20.    300.     17.    247.     16.    227.     15.
    235.     15.    269.     16.    326.     18.    401.     20.    484.     22.
    561.     24.                                                                
